X	Potential(X)	Exp(-Potential(X))	Convolved Exp(-Potential(X))	Potential from Convolved Density
-2.0000	-0.4000	1.4918	9.1482	-2.2136
-1.9900	-0.5560	1.7437	9.6131	-2.2631
-1.9800	-0.7081	2.0301	10.0864	-2.3112
-1.9700	-0.8562	2.3542	10.5675	-2.3578
-1.9600	-1.0005	2.7197	11.0557	-2.4029
-1.9500	-1.1410	3.1299	11.5502	-2.4467
-1.9400	-1.2777	3.5884	12.0505	-2.4891
-1.9300	-1.4107	4.0989	12.5557	-2.5302
-1.9200	-1.5401	4.6648	13.0652	-2.5700
-1.9100	-1.6658	5.2897	13.5782	-2.6085
-1.9000	-1.7879	5.9769	14.0940	-2.6458
-1.8900	-1.9065	6.7295	14.6119	-2.6818
-1.8800	-2.0216	7.5505	15.1312	-2.7168
-1.8700	-2.1333	8.4426	15.6512	-2.7505
-1.8600	-2.2416	9.4081	16.1711	-2.7832
-1.8500	-2.3465	10.4489	16.6903	-2.8148
-1.8400	-2.4481	11.5665	17.2080	-2.8454
-1.8300	-2.5465	12.7620	17.7237	-2.8749
-1.8200	-2.6416	14.0357	18.2367	-2.9034
-1.8100	-2.7336	15.3877	18.7464	-2.9310
-1.8000	-2.8224	16.8172	19.2521	-2.9576
-1.7900	-2.9081	18.3227	19.7533	-2.9833
-1.7800	-2.9908	19.9024	20.2495	-3.0081
-1.7700	-3.0705	21.5535	20.7400	-3.0321
-1.7600	-3.1473	23.2725	21.2243	-3.0551
-1.7500	-3.2211	25.0555	21.7020	-3.0774
-1.7400	-3.2920	26.8976	22.1727	-3.0989
-1.7300	-3.3601	28.7935	22.6357	-3.1195
-1.7200	-3.4255	30.7371	23.0908	-3.1394
-1.7100	-3.4880	32.7217	23.5375	-3.1586
-1.7000	-3.5479	34.7403	23.9754	-3.1770
-1.6900	-3.6051	36.7851	24.4042	-3.1948
-1.6800	-3.6597	38.8481	24.8235	-3.2118
-1.6700	-3.7116	40.9207	25.2330	-3.2282
-1.6600	-3.7611	42.9943	25.6324	-3.2439
-1.6500	-3.8080	45.0599	26.0215	-3.2589
-1.6400	-3.8525	47.1084	26.4000	-3.2734
-1.6300	-3.8945	49.1306	26.7676	-3.2872
-1.6200	-3.9341	51.1174	27.1241	-3.3004
-1.6100	-3.9714	53.0597	27.4694	-3.3131
-1.6000	-4.0064	54.9487	27.8032	-3.3252
-1.5900	-4.0391	56.7758	28.1254	-3.3367
-1.5800	-4.0696	58.5328	28.4358	-3.3477
-1.5700	-4.0979	60.2118	28.7343	-3.3581
-1.5600	-4.1240	61.8054	29.0208	-3.3680
-1.5500	-4.1480	63.3069	29.2951	-3.3774
-1.5400	-4.1699	64.7099	29.5572	-3.3863
-1.5300	-4.1898	66.0087	29.8069	-3.3947
-1.5200	-4.2077	67.1986	30.0443	-3.4027
-1.5100	-4.2235	68.2750	30.2692	-3.4101
-1.5000	-4.2375	69.2345	30.4816	-3.4171
-1.4900	-4.2496	70.0743	30.6744	-3.4234
-1.4800	-4.2597	70.7921	30.8536	-3.4293
-1.4700	-4.2681	71.3867	31.0190	-3.4346
-1.4600	-4.2747	71.8572	31.1706	-3.4395
-1.4500	-4.2795	72.2039	31.3080	-3.4439
-1.4400	-4.2826	72.4273	31.4312	-3.4478
-1.4300	-4.2840	72.5288	31.5401	-3.4513
-1.4200	-4.2837	72.5105	31.6344	-3.4542
-1.4100	-4.2819	72.3748	31.7139	-3.4568
-1.4000	-4.2784	72.1249	31.7785	-3.4588
-1.3900	-4.2734	71.7645	31.8281	-3.4603
-1.3800	-4.2669	71.2975	31.8623	-3.4614
-1.3700	-4.2588	70.7283	31.8812	-3.4620
-1.3600	-4.2494	70.0619	31.8844	-3.4621
-1.3500	-4.2385	69.3034	31.8719	-3.4617
-1.3400	-4.2262	68.4580	31.8433	-3.4608
-1.3300	-4.2126	67.5314	31.7987	-3.4594
-1.3200	-4.1976	66.5293	31.7378	-3.4575
-1.3100	-4.1814	65.4575	31.6605	-3.4551
-1.3000	-4.1639	64.3219	31.5667	-3.4521
-1.2900	-4.1452	63.1284	31.4563	-3.4486
-1.2800	-4.1252	61.8830	31.3291	-3.4445
-1.2700	-4.1042	60.5914	31.1851	-3.4399
-1.2600	-4.0819	59.2595	31.0243	-3.4348
-1.2500	-4.0586	57.8928	30.8467	-3.4290
-1.2400	-4.0342	56.4969	30.6522	-3.4227
-1.2300	-4.0087	55.0771	30.4410	-3.4158
-1.2200	-3.9823	53.6384	30.2130	-3.4083
-1.2100	-3.9548	52.1858	29.9686	-3.4001
-1.2000	-3.9264	50.7240	29.7077	-3.3914
-1.1900	-3.8971	49.2575	29.4306	-3.3820
-1.1800	-3.8668	47.7903	29.1377	-3.3720
-1.1700	-3.8357	46.3264	28.8290	-3.3614
-1.1600	-3.8038	44.8696	28.5051	-3.3501
-1.1500	-3.7710	43.4232	28.1662	-3.3381
-1.1400	-3.7374	41.9904	27.8129	-3.3255
-1.1300	-3.7031	40.5740	27.4455	-3.3122
-1.1200	-3.6681	39.1766	27.0646	-3.2982
-1.1100	-3.6323	37.8008	26.6708	-3.2836
-1.1000	-3.5959	36.4485	26.2646	-3.2682
-1.0900	-3.5588	35.1217	25.8468	-3.2522
-1.0800	-3.5211	33.8220	25.4178	-3.2355
-1.0700	-3.4828	32.5509	24.9786	-3.2180
-1.0600	-3.4439	31.3095	24.5297	-3.1999
-1.0500	-3.4045	30.0991	24.0720	-3.1810
-1.0400	-3.3645	28.9202	23.6062	-3.1615
-1.0300	-3.3241	27.7737	23.1332	-3.1413
-1.0200	-3.2832	26.6601	22.6538	-3.1203
-1.0100	-3.2418	25.5796	22.1687	-3.0987
-1.0000	-3.2000	24.5325	21.6789	-3.0763
-0.9900	-3.1578	23.5189	21.1852	-3.0533
-0.9800	-3.1152	22.5387	20.6884	-3.0296
-0.9700	-3.0723	21.5917	20.1894	-3.0052
-0.9600	-3.0291	20.6777	19.6890	-2.9801
-0.9500	-2.9855	19.7963	19.1881	-2.9543
-0.9400	-2.9417	18.9471	18.6873	-2.9278
-0.9300	-2.8975	18.1296	18.1876	-2.9007
-0.9200	-2.8532	17.3433	17.6897	-2.8730
-0.9100	-2.8087	16.5875	17.1943	-2.8446
-0.9000	-2.7639	15.8616	16.7022	-2.8155
-0.8900	-2.7190	15.1648	16.2140	-2.7859
-0.8800	-2.6739	14.4965	15.7304	-2.7556
-0.8700	-2.6287	13.8558	15.2520	-2.7247
-0.8600	-2.5834	13.2420	14.7794	-2.6932
-0.8500	-2.5380	12.6543	14.3131	-2.6612
-0.8400	-2.4925	12.0918	13.8537	-2.6286
-0.8300	-2.4470	11.5538	13.4016	-2.5954
-0.8200	-2.4015	11.0395	12.9573	-2.5617
-0.8100	-2.3559	10.5480	12.5212	-2.5274
-0.8000	-2.3104	10.0785	12.0935	-2.4927
-0.7900	-2.2649	9.6302	11.6747	-2.4574
-0.7800	-2.2194	9.2023	11.2651	-2.4217
-0.7700	-2.1741	8.7940	10.8647	-2.3855
-0.7600	-2.1288	8.4046	10.4740	-2.3489
-0.7500	-2.0836	8.0333	10.0929	-2.3118
-0.7400	-2.0385	7.6793	9.7218	-2.2744
-0.7300	-1.9936	7.3420	9.3606	-2.2365
-0.7200	-1.9489	7.0207	9.0095	-2.1983
-0.7100	-1.9043	6.7146	8.6685	-2.1597
-0.7000	-1.8599	6.4231	8.3376	-2.1208
-0.6900	-1.8157	6.1456	8.0168	-2.0815
-0.6800	-1.7718	5.8813	7.7061	-2.0420
-0.6700	-1.7281	5.6299	7.4054	-2.0022
-0.6600	-1.6847	5.3906	7.1146	-1.9621
-0.6500	-1.6415	5.1629	6.8336	-1.9219
-0.6400	-1.5986	4.9462	6.5623	-1.8813
-0.6300	-1.5561	4.7402	6.3006	-1.8406
-0.6200	-1.5138	4.5441	6.0483	-1.7998
-0.6100	-1.4719	4.3577	5.8052	-1.7588
-0.6000	-1.4304	4.1804	5.5712	-1.7176
-0.5900	-1.3892	4.0117	5.3461	-1.6764
-0.5800	-1.3484	3.8514	5.1297	-1.6350
-0.5700	-1.3080	3.6989	4.9217	-1.5937
-0.5600	-1.2681	3.5539	4.7221	-1.5522
-0.5500	-1.2285	3.4161	4.5304	-1.5108
-0.5400	-1.1894	3.2850	4.3466	-1.4694
-0.5300	-1.1507	3.1604	4.1704	-1.4280
-0.5200	-1.1125	3.0419	4.0016	-1.3867
-0.5100	-1.0747	2.9293	3.8400	-1.3455
-0.5000	-1.0375	2.8222	3.6853	-1.3043
-0.4900	-1.0008	2.7203	3.5373	-1.2634
-0.4800	-0.9645	2.6235	3.3958	-1.2225
-0.4700	-0.9288	2.5315	3.2605	-1.1819
-0.4600	-0.8936	2.4440	3.1313	-1.1414
-0.4500	-0.8590	2.3608	3.0079	-1.1012
-0.4400	-0.8249	2.2817	2.8901	-1.0613
-0.4300	-0.7914	2.2065	2.7778	-1.0216
-0.4200	-0.7585	2.1350	2.6706	-0.9823
-0.4100	-0.7261	2.0671	2.5684	-0.9433
-0.4000	-0.6944	2.0025	2.4711	-0.9047
-0.3900	-0.6633	1.9411	2.3784	-0.8664
-0.3800	-0.6327	1.8828	2.2901	-0.8286
-0.3700	-0.6029	1.8273	2.2060	-0.7912
-0.3600	-0.5736	1.7747	2.1261	-0.7543
-0.3500	-0.5450	1.7246	2.0501	-0.7179
-0.3400	-0.5170	1.6771	1.9778	-0.6820
-0.3300	-0.4897	1.6319	1.9091	-0.6466
-0.3200	-0.4631	1.5890	1.8439	-0.6119
-0.3100	-0.4372	1.5483	1.7820	-0.5777
-0.3000	-0.4119	1.5097	1.7232	-0.5442
-0.2900	-0.3873	1.4730	1.6675	-0.5113
-0.2800	-0.3635	1.4383	1.6147	-0.4791
-0.2700	-0.3403	1.4053	1.5647	-0.4477
-0.2600	-0.3178	1.3741	1.5173	-0.4169
-0.2500	-0.2961	1.3446	1.4725	-0.3870
-0.2400	-0.2751	1.3166	1.4302	-0.3578
-0.2300	-0.2548	1.2902	1.3902	-0.3294
-0.2200	-0.2353	1.2652	1.3524	-0.3019
-0.2100	-0.2165	1.2417	1.3169	-0.2752
-0.2000	-0.1984	1.2195	1.2834	-0.2495
-0.1900	-0.1811	1.1985	1.2519	-0.2246
-0.1800	-0.1646	1.1789	1.2223	-0.2007
-0.1700	-0.1488	1.1604	1.1945	-0.1778
-0.1600	-0.1337	1.1431	1.1686	-0.1558
-0.1500	-0.1195	1.1269	1.1443	-0.1348
-0.1400	-0.1060	1.1118	1.1217	-0.1149
-0.1300	-0.0933	1.0978	1.1007	-0.0960
-0.1200	-0.0814	1.0848	1.0813	-0.0781
-0.1100	-0.0703	1.0728	1.0633	-0.0614
-0.1000	-0.0599	1.0617	1.0468	-0.0457
-0.0900	-0.0503	1.0516	1.0317	-0.0312
-0.0800	-0.0416	1.0424	1.0179	-0.0178
-0.0700	-0.0336	1.0341	1.0055	-0.0055
-0.0600	-0.0264	1.0267	0.9944	0.0056
-0.0500	-0.0200	1.0202	0.9846	0.0156
-0.0400	-0.0144	1.0145	0.9760	0.0243
-0.0300	-0.0096	1.0096	0.9686	0.0319
-0.0200	-0.0056	1.0056	0.9624	0.0383
-0.0100	-0.0024	1.0024	0.9574	0.0435
0.0000	0.0000	1.0000	0.9536	0.0475
0.0100	0.0016	0.9984	0.9509	0.0503
0.0200	0.0024	0.9976	0.9494	0.0519
0.0300	0.0024	0.9976	0.9490	0.0523
0.0400	0.0016	0.9984	0.9498	0.0515
0.0500	0.0000	1.0000	0.9517	0.0495
0.0600	-0.0024	1.0024	0.9547	0.0464
0.0700	-0.0056	1.0056	0.9589	0.0420
0.0800	-0.0096	1.0096	0.9642	0.0364
0.0900	-0.0143	1.0144	0.9707	0.0297
0.1000	-0.0199	1.0201	0.9784	0.0218
0.1100	-0.0263	1.0266	0.9873	0.0128
0.1200	-0.0334	1.0340	0.9974	0.0026
0.1300	-0.0413	1.0422	1.0087	-0.0087
0.1400	-0.0500	1.0513	1.0213	-0.0211
0.1500	-0.0595	1.0613	1.0351	-0.0345
0.1600	-0.0697	1.0722	1.0503	-0.0491
0.1700	-0.0808	1.0841	1.0668	-0.0647
0.1800	-0.0926	1.0970	1.0847	-0.0813
0.1900	-0.1051	1.1108	1.1040	-0.0989
0.2000	-0.1184	1.1257	1.1247	-0.1176
0.2100	-0.1325	1.1416	1.1470	-0.1371
0.2200	-0.1473	1.1587	1.1708	-0.1577
0.2300	-0.1628	1.1768	1.1962	-0.1791
0.2400	-0.1791	1.1961	1.2232	-0.2015
0.2500	-0.1961	1.2166	1.2519	-0.2247
0.2600	-0.2138	1.2384	1.2824	-0.2488
0.2700	-0.2323	1.2615	1.3148	-0.2736
0.2800	-0.2515	1.2859	1.3490	-0.2993
0.2900	-0.2713	1.3117	1.3851	-0.3258
0.3000	-0.2919	1.3390	1.4233	-0.3530
0.3100	-0.3132	1.3677	1.4636	-0.3809
0.3200	-0.3351	1.3981	1.5060	-0.4095
0.3300	-0.3577	1.4301	1.5507	-0.4387
0.3400	-0.3810	1.4638	1.5978	-0.4686
0.3500	-0.4050	1.4993	1.6472	-0.4991
0.3600	-0.4296	1.5366	1.6992	-0.5302
0.3700	-0.4549	1.5760	1.7538	-0.5618
0.3800	-0.4807	1.6173	1.8111	-0.5939
0.3900	-0.5073	1.6607	1.8712	-0.6266
0.4000	-0.5344	1.7064	1.9342	-0.6597
0.4100	-0.5621	1.7544	2.0001	-0.6932
0.4200	-0.5905	1.8049	2.0692	-0.7272
0.4300	-0.6194	1.8578	2.1416	-0.7615
0.4400	-0.6489	1.9135	2.2172	-0.7963
0.4500	-0.6790	1.9719	2.2963	-0.8313
0.4600	-0.7096	2.0332	2.3789	-0.8667
0.4700	-0.7408	2.0976	2.4653	-0.9023
0.4800	-0.7725	2.1652	2.5553	-0.9382
0.4900	-0.8048	2.2361	2.6493	-0.9743
0.5000	-0.8375	2.3106	2.7473	-1.0106
0.5100	-0.8707	2.3887	2.8495	-1.0471
0.5200	-0.9045	2.4707	2.9559	-1.0838
0.5300	-0.9387	2.5566	3.0666	-1.1206
0.5400	-0.9734	2.6468	3.1818	-1.1575
0.5500	-1.0085	2.7415	3.3017	-1.1944
0.5600	-1.0441	2.8407	3.4262	-1.2314
0.5700	-1.0800	2.9448	3.5555	-1.2685
0.5800	-1.1164	3.0539	3.6897	-1.3055
0.5900	-1.1532	3.1684	3.8289	-1.3426
0.6000	-1.1904	3.2884	3.9732	-1.3796
0.6100	-1.2279	3.4142	4.1226	-1.4165
0.6200	-1.2658	3.5461	4.2773	-1.4533
0.6300	-1.3041	3.6843	4.4373	-1.4901
0.6400	-1.3426	3.8291	4.6027	-1.5266
0.6500	-1.3815	3.9808	4.7736	-1.5631
0.6600	-1.4207	4.1398	4.9499	-1.5994
0.6700	-1.4601	4.3063	5.1316	-1.6354
0.6800	-1.4998	4.4807	5.3190	-1.6713
0.6900	-1.5397	4.6633	5.5118	-1.7069
0.7000	-1.5799	4.8545	5.7101	-1.7422
0.7100	-1.6203	5.0545	5.9139	-1.7773
0.7200	-1.6609	5.2638	6.1232	-1.8121
0.7300	-1.7016	5.4828	6.3379	-1.8465
0.7400	-1.7425	5.7118	6.5579	-1.8807
0.7500	-1.7836	5.9512	6.7831	-1.9144
0.7600	-1.8248	6.2014	7.0134	-1.9478
0.7700	-1.8661	6.4628	7.2487	-1.9808
0.7800	-1.9074	6.7359	7.4888	-2.0134
0.7900	-1.9489	7.0210	7.7336	-2.0456
0.8000	-1.9904	7.3185	7.9829	-2.0773
0.8100	-2.0319	7.6288	8.2365	-2.1086
0.8200	-2.0735	7.9524	8.4941	-2.1394
0.8300	-2.1150	8.2897	8.7555	-2.1697
0.8400	-2.1565	8.6411	9.0204	-2.1995
0.8500	-2.1980	9.0069	9.2886	-2.2288
0.8600	-2.2394	9.3876	9.5597	-2.2576
0.8700	-2.2807	9.7835	9.8333	-2.2858
0.8800	-2.3219	10.1951	10.1092	-2.3134
0.8900	-2.3630	10.6225	10.3870	-2.3406
0.9000	-2.4039	11.0663	10.6663	-2.3671
0.9100	-2.4447	11.5265	10.9467	-2.3930
0.9200	-2.4852	12.0036	11.2277	-2.4184
0.9300	-2.5255	12.4977	11.5091	-2.4431
0.9400	-2.5657	13.0091	11.7902	-2.4673
0.9500	-2.6055	13.5379	12.0708	-2.4908
0.9600	-2.6451	14.0842	12.3502	-2.5137
0.9700	-2.6843	14.6480	12.6282	-2.5359
0.9800	-2.7232	15.2295	12.9041	-2.5575
0.9900	-2.7618	15.8284	13.1776	-2.5785
1.0000	-2.8000	16.4446	13.4481	-2.5988
1.0100	-2.8378	17.0781	13.7153	-2.6185
1.0200	-2.8752	17.7284	13.9786	-2.6375
1.0300	-2.9121	18.3952	14.2377	-2.6559
1.0400	-2.9485	19.0781	14.4920	-2.6736
1.0500	-2.9845	19.7765	14.7411	-2.6906
1.0600	-3.0199	20.4897	14.9847	-2.7070
1.0700	-3.0548	21.2170	15.2222	-2.7228
1.0800	-3.0891	21.9575	15.4534	-2.7378
1.0900	-3.1228	22.7103	15.6779	-2.7522
1.1000	-3.1559	23.4742	15.8952	-2.7660
1.1100	-3.1883	24.2479	16.1051	-2.7791
1.1200	-3.2201	25.0301	16.3073	-2.7916
1.1300	-3.2511	25.8194	16.5014	-2.8034
1.1400	-3.2814	26.6141	16.6873	-2.8146
1.1500	-3.3110	27.4124	16.8646	-2.8252
1.1600	-3.3398	28.2124	17.0332	-2.8352
1.1700	-3.3677	29.0121	17.1928	-2.8445
1.1800	-3.3948	29.8094	17.3433	-2.8532
1.1900	-3.4211	30.6019	17.4847	-2.8613
1.2000	-3.4464	31.3872	17.6166	-2.8688
1.2100	-3.4708	32.1628	17.7391	-2.8758
1.2200	-3.4943	32.9261	17.8520	-2.8821
1.2300	-3.5167	33.6743	17.9554	-2.8879
1.2400	-3.5382	34.4045	18.0492	-2.8931
1.2500	-3.5586	35.1138	18.1333	-2.8977
1.2600	-3.5779	35.7992	18.2078	-2.9018
1.2700	-3.5962	36.4577	18.2727	-2.9054
1.2800	-3.6132	37.0862	18.3280	-2.9084
1.2900	-3.6292	37.6816	18.3738	-2.9109
1.3000	-3.6439	38.2407	18.4102	-2.9129
1.3100	-3.6574	38.7605	18.4371	-2.9144
1.3200	-3.6696	39.2379	18.4547	-2.9153
1.3300	-3.6806	39.6699	18.4631	-2.9158
1.3400	-3.6902	40.0537	18.4623	-2.9157
1.3500	-3.6985	40.3864	18.4525	-2.9152
1.3600	-3.7054	40.6655	18.4338	-2.9142
1.3700	-3.7108	40.8884	18.4062	-2.9127
1.3800	-3.7149	41.0529	18.3699	-2.9107
1.3900	-3.7174	41.1568	18.3249	-2.9083
1.4000	-3.7184	41.1984	18.2715	-2.9053
1.4100	-3.7179	41.1761	18.2096	-2.9019
1.4200	-3.7157	41.0886	18.1393	-2.8981
1.4300	-3.7120	40.9349	18.0609	-2.8937
1.4400	-3.7066	40.7144	17.9744	-2.8889
1.4500	-3.6995	40.4268	17.8798	-2.8837
1.4600	-3.6907	40.0721	17.7773	-2.8779
1.4700	-3.6801	39.6508	17.6670	-2.8717
1.4800	-3.6677	39.1636	17.5491	-2.8650
1.4900	-3.6536	38.6117	17.4234	-2.8578
1.5000	-3.6375	37.9967	17.2903	-2.8501
1.5100	-3.6195	37.3205	17.1470	-2.8418
1.5200	-3.5997	36.5855	16.9967	-2.8330
1.5300	-3.5778	35.7942	16.8396	-2.8237
1.5400	-3.5539	34.9498	16.6756	-2.8139
1.5500	-3.5280	34.0556	16.5048	-2.8036
1.5600	-3.5000	33.1152	16.3272	-2.7928
1.5700	-3.4699	32.1325	16.1431	-2.7815
1.5800	-3.4376	31.1118	15.9524	-2.7696
1.5900	-3.4031	30.0574	15.7553	-2.7572
1.6000	-3.3664	28.9740	15.5518	-2.7442
1.6100	-3.3274	27.8663	15.3422	-2.7306
1.6200	-3.2861	26.7390	15.1264	-2.7164
1.6300	-3.2425	25.5972	14.9046	-2.7017
1.6400	-3.1965	24.4456	14.6771	-2.6863
1.6500	-3.1480	23.2893	14.4438	-2.6703
1.6600	-3.0971	22.1330	14.2051	-2.6536
1.6700	-3.0436	20.9814	13.9611	-2.6363
1.6800	-2.9877	19.8392	13.7119	-2.6183
1.6900	-2.9291	18.7106	13.4578	-2.5996
1.7000	-2.8679	17.6000	13.1990	-2.5801
1.7100	-2.8040	16.5112	12.9356	-2.5600
1.7200	-2.7375	15.4478	12.6680	-2.5391
1.7300	-2.6681	14.4133	12.3964	-2.5174
1.7400	-2.5960	13.4105	12.1210	-2.4949
1.7500	-2.5211	12.4422	11.8422	-2.4717
1.7600	-2.4433	11.5107	11.5601	-2.4476
1.7700	-2.3625	10.6179	11.2751	-2.4226
1.7800	-2.2788	9.7654	10.9875	-2.3968
1.7900	-2.1921	8.9544	10.6976	-2.3700
1.8000	-2.1024	8.1858	10.4058	-2.3424
1.8100	-2.0096	7.4601	10.1123	-2.3138
1.8200	-1.9136	6.7775	9.8175	-2.2842
1.8300	-1.8145	6.1378	9.5219	-2.2536
1.8400	-1.7121	5.5407	9.2257	-2.2220
1.8500	-1.6065	4.9853	8.9293	-2.1893
1.8600	-1.4976	4.4708	8.6331	-2.1556
1.8700	-1.3853	3.9960	8.3375	-2.1208
1.8800	-1.2696	3.5595	8.0428	-2.0848
1.8900	-1.1505	3.1598	7.7496	-2.0476
1.9000	-1.0279	2.7952	7.4581	-2.0093
1.9100	-0.9018	2.4640	7.1688	-1.9697
1.9200	-0.7721	2.1642	6.8820	-1.9289
1.9300	-0.6387	1.8941	6.5982	-1.8868
1.9400	-0.5017	1.6516	6.3177	-1.8434
1.9500	-0.3610	1.4348	6.0409	-1.7986
1.9600	-0.2165	1.2417	5.7683	-1.7524
1.9700	-0.0682	1.0706	5.5000	-1.7048
1.9800	0.0839	0.9195	5.2367	-1.6557
1.9900	0.2400	0.7866	4.9784	-1.6051
2.0000	0.4000	0.6703	4.7256	-1.5530
